* Measurement data measured by REW V5.20.5
* Source: Rohsa 1.1A Target Filtered
* Format: 
* Dated: 2022/05/26 18:08:42
* REW Settings:
*  C-weighting compensation: Off
*  Target level: -3.5 dB
* Note: 
* Measurement: Rohsa 1.1C Target
* Smoothing: 1/12 octave
* Frequency Step: 1/48 octave
* Start Frequency: 19.500 Hz
*
* Freq(Hz) SPL(dB)
19.500000 82.330
19.750000 82.329
20.000000 82.328
20.299999 82.325
20.600000 82.323
20.900000 82.320
21.200001 82.318
21.400000 82.316
21.799999 82.313
22.000000 82.311
22.400000 82.308
22.700001 82.306
23.000000 82.303
23.299999 82.301
23.600000 82.299
24.000000 82.296
24.299999 82.294
24.700001 82.291
25.000000 82.289
25.400000 82.287
25.799999 82.284
26.200001 82.281
26.500000 82.280
26.900000 82.277
27.200001 82.275
27.600000 82.273
28.000000 82.270
28.500000 82.267
29.000000 82.264
29.500000 82.260
30.000000 82.257
30.400000 82.254
30.700001 82.251
31.100000 82.248
31.500000 82.245
32.000000 82.240
32.500000 82.236
33.000000 82.231
33.500000 82.225
34.000000 82.219
34.500000 82.213
35.000000 82.206
35.500000 82.198
36.000000 82.190
36.500000 82.181
37.000000 82.172
37.500000 82.162
38.200001 82.146
38.700001 82.134
39.500000 82.113
40.000000 82.099
40.599998 82.080
41.200001 82.061
41.799999 82.040
42.500000 82.013
43.099998 81.989
43.700001 81.964
44.400002 81.932
45.000000 81.904
45.500000 81.879
46.200001 81.842
46.799999 81.810
47.500000 81.770
48.200001 81.728
48.700001 81.698
49.400002 81.653
50.000000 81.614
50.799999 81.560
51.500000 81.511
52.200001 81.461
53.000000 81.402
53.799999 81.342
54.500000 81.288
55.200001 81.234
56.000000 81.170
57.000000 81.090
58.000000 81.008
59.000000 80.925
60.000000 80.842
60.799999 80.775
61.500000 80.717
62.200001 80.658
63.000000 80.591
64.000000 80.507
65.000000 80.423
66.000000 80.340
67.000000 80.257
68.000000 80.175
69.000000 80.094
70.000000 80.013
71.000000 79.933
72.000000 79.854
73.000000 79.776
74.000000 79.699
75.000000 79.623
76.199997 79.533
77.500000 79.438
78.800003 79.344
80.000000 79.259
81.199997 79.175
82.500000 79.086
83.800003 78.999
85.000000 78.920
86.199997 78.842
87.500000 78.759
88.500000 78.697
90.000000 78.604
91.199997 78.532
92.500000 78.455
93.800003 78.379
95.000000 78.311
96.199997 78.243
97.500000 78.171
98.800003 78.100
100.000000 78.036
101.500000 77.957
103.000000 77.880
104.400002 77.809
106.000000 77.729
107.500000 77.656
109.000000 77.585
110.599998 77.510
112.000000 77.445
113.800003 77.364
115.000000 77.311
117.199997 77.216
118.000000 77.182
120.599998 77.075
122.000000 77.018
124.099998 76.935
125.000000 76.901
126.500000 76.844
128.000000 76.788
131.500000 76.663
132.000000 76.645
134.000000 76.577
136.000000 76.511
138.000000 76.447
140.000000 76.384
143.000000 76.294
145.000000 76.237
147.500000 76.168
150.000000 76.101
152.500000 76.037
155.000000 75.976
157.500000 75.917
160.000000 75.861
162.500000 75.807
165.000000 75.755
167.500000 75.706
170.000000 75.659
172.500000 75.614
175.000000 75.570
177.500000 75.529
180.000000 75.490
182.500000 75.452
185.000000 75.416
187.500000 75.382
190.000000 75.349
192.500000 75.318
195.000000 75.289
197.500000 75.261
200.000000 75.235
203.000000 75.205
206.000000 75.177
209.000000 75.151
212.000000 75.127
214.000000 75.112
218.000000 75.084
220.000000 75.071
224.000000 75.048
227.000000 75.032
230.000000 75.017
233.000000 75.004
236.000000 74.992
240.000000 74.978
243.000000 74.969
247.000000 74.959
250.000000 74.952
254.000000 74.944
258.000000 74.938
262.000000 74.933
265.000000 74.930
269.000000 74.927
272.000000 74.925
276.000000 74.923
280.000000 74.923
285.000000 74.923
290.000000 74.924
295.000000 74.925
300.000000 74.927
304.000000 74.929
307.000000 74.931
311.000000 74.933
315.000000 74.936
320.000000 74.939
325.000000 74.942
330.000000 74.945
335.000000 74.949
340.000000 74.952
345.000000 74.955
350.000000 74.958
355.000000 74.960
360.000000 74.963
365.000000 74.966
370.000000 74.968
375.000000 74.970
382.000000 74.973
387.000000 74.974
395.000000 74.977
400.000000 74.978
406.000000 74.979
412.000000 74.980
418.000000 74.982
425.000000 74.982
431.000000 74.983
437.000000 74.984
444.000000 74.984
450.000000 74.985
455.000000 74.985
462.000000 74.985
468.000000 74.985
475.000000 74.985
482.000000 74.985
487.000000 74.985
494.000000 74.985
500.000000 74.984
508.000000 74.984
515.000000 74.984
522.000000 74.983
530.000000 74.983
538.000000 74.982
545.000000 74.982
552.000000 74.982
560.000000 74.981
570.000000 74.981
580.000000 74.981
590.000000 74.982
600.000000 74.983
608.000000 74.984
615.000000 74.985
622.000000 74.987
630.000000 74.990
640.000000 74.995
650.000000 75.001
660.000000 75.009
670.000000 75.019
680.000000 75.031
690.000000 75.044
700.000000 75.060
710.000000 75.078
720.000000 75.098
730.000000 75.119
740.000000 75.143
750.000000 75.168
762.000000 75.200
775.000000 75.236
788.000000 75.274
800.000000 75.311
812.000000 75.350
825.000000 75.399
838.000000 75.458
850.000000 75.521
862.000000 75.583
875.000000 75.645
885.000000 75.692
900.000000 75.772
912.000000 75.841
925.000000 75.917
938.000000 75.993
950.000000 76.063
962.000000 76.134
975.000000 76.206
988.000000 76.274
1000.000000 76.341
1015.000000 76.434
1030.000000 76.537
1044.000000 76.638
1060.000000 76.747
1075.000000 76.845
1090.000000 76.943
1106.000000 77.048
1120.000000 77.137
1138.000000 77.250
1150.000000 77.324
1172.000000 77.462
1180.000000 77.515
1206.000000 77.688
1220.000000 77.777
1241.000000 77.907
1250.000000 77.963
1265.000000 78.056
1280.000000 78.150
1315.000000 78.365
1320.000000 78.394
1340.000000 78.502
1360.000000 78.600
1380.000000 78.696
1400.000000 78.791
1430.000000 78.937
1450.000000 79.035
1475.000000 79.157
1500.000000 79.279
1525.000000 79.400
1550.000000 79.518
1575.000000 79.633
1600.000000 79.746
1625.000000 79.857
1650.000000 79.964
1675.000000 80.069
1700.000000 80.172
1725.000000 80.272
1750.000000 80.370
1775.000000 80.467
1800.000000 80.563
1825.000000 80.658
1850.000000 80.753
1875.000000 80.847
1900.000000 80.942
1925.000000 81.037
1950.000000 81.133
1975.000000 81.228
2000.000000 81.323
2030.000000 81.431
2060.000000 81.530
2090.000000 81.625
2120.000000 81.726
2140.000000 81.798
2180.000000 81.946
2200.000000 82.016
2240.000000 82.147
2270.000000 82.242
2300.000000 82.338
2330.000000 82.432
2360.000000 82.525
2400.000000 82.650
2430.000000 82.738
2470.000000 82.849
2500.000000 82.927
2540.000000 83.026
2580.000000 83.116
2620.000000 83.198
2650.000000 83.259
2690.000000 83.338
2720.000000 83.393
2760.000000 83.464
2800.000000 83.528
2850.000000 83.586
2900.000000 83.623
2950.000000 83.644
3000.000000 83.652
3040.000000 83.646
3070.000000 83.632
3110.000000 83.602
3150.000000 83.565
3200.000000 83.518
3250.000000 83.465
3300.000000 83.394
3350.000000 83.310
3400.000000 83.218
3450.000000 83.122
3500.000000 83.023
3550.000000 82.923
3600.000000 82.820
3650.000000 82.713
3700.000000 82.601
3750.000000 82.485
3820.000000 82.322
3870.000000 82.204
3950.000000 82.010
4000.000000 81.893
4060.000000 81.759
4120.000000 81.624
4180.000000 81.481
4250.000000 81.314
4310.000000 81.179
4370.000000 81.056
4440.000000 80.923
4500.000000 80.807
4550.000000 80.705
4620.000000 80.560
4680.000000 80.436
4750.000000 80.293
4820.000000 80.154
4870.000000 80.057
4940.000000 79.924
5000.000000 79.812
5080.000000 79.667
5150.000000 79.544
5220.000000 79.423
5300.000000 79.288
5380.000000 79.157
5450.000000 79.045
5520.000000 78.935
5600.000000 78.813
5700.000000 78.663
5800.000000 78.517
5900.000000 78.372
6000.000000 78.223
6080.000000 78.097
6150.000000 77.983
6220.000000 77.872
6300.000000 77.755
6400.000000 77.621
6500.000000 77.495
6600.000000 77.374
6700.000000 77.256
6800.000000 77.140
6900.000000 77.026
7000.000000 76.913
7100.000000 76.797
7200.000000 76.675
7300.000000 76.546
7400.000000 76.419
7500.000000 76.303
7620.000000 76.177
7750.000000 76.049
7880.000000 75.925
8000.000000 75.814
8120.000000 75.702
8250.000000 75.577
8380.000000 75.443
8500.000000 75.316
8620.000000 75.197
8750.000000 75.081
8850.000000 74.996
9000.000000 74.868
9120.000000 74.759
9250.000000 74.636
9380.000000 74.518
9500.000000 74.416
9620.000000 74.313
9750.000000 74.198
9880.000000 74.084
10000.000000 73.980
10150.000000 73.852
10300.000000 73.726
10440.000000 73.612
10600.000000 73.480
10750.000000 73.354
10900.000000 73.230
11060.000000 73.104
11200.000000 73.000
11380.000000 72.867
11500.000000 72.777
11720.000000 72.609
11800.000000 72.548
12060.000000 72.354
12200.000000 72.252
12410.000000 72.102
12500.000000 72.039
12650.000000 71.936
12800.000000 71.834
13150.000000 71.604
13200.000000 71.571
13400.000000 71.444
13600.000000 71.320
13800.000000 71.197
14000.000000 71.076
14300.000000 70.891
14500.000000 70.764
14750.000000 70.609
15000.000000 70.464
15250.000000 70.323
15500.000000 70.178
15750.000000 70.031
16000.000000 69.889
16250.000000 69.746
16500.000000 69.606
16750.000000 69.470
17000.000000 69.334
17250.000000 69.200
17500.000000 69.070
17750.000000 68.940
18000.000000 68.810
18250.000000 68.683
18500.000000 68.552
18750.000000 68.419
19000.000000 68.292
19250.000000 68.178
19500.000000 68.079
19750.000000 68.002
20000.000000 67.957
