* Measurement data measured by REW V5.20.5
* Source: Rohsa 1.1A Target Filtered
* Format: 
* Dated: 2022/05/26 18:05:06
* REW Settings:
*  C-weighting compensation: Off
*  Target level: -19.1 dB
* Note: 
* Measurement: Rohsa 1.1B Target
* Smoothing: 1/12 octave
* Frequency Step: 1/48 octave
* Start Frequency: 19.500 Hz
*
* Freq(Hz) SPL(dB)
19.500000 81.870
19.750000 81.868
20.000000 81.858
20.299999 81.843
20.600000 81.827
20.900000 81.809
21.200001 81.792
21.400000 81.781
21.799999 81.757
22.000000 81.746
22.400000 81.722
22.700001 81.704
23.000000 81.686
23.299999 81.668
23.600000 81.650
24.000000 81.625
24.299999 81.607
24.700001 81.582
25.000000 81.563
25.400000 81.538
25.799999 81.513
26.200001 81.487
26.500000 81.468
26.900000 81.443
27.200001 81.423
27.600000 81.398
28.000000 81.372
28.500000 81.339
29.000000 81.306
29.500000 81.274
30.000000 81.241
30.400000 81.214
30.700001 81.194
31.100000 81.168
31.500000 81.141
32.000000 81.108
32.500000 81.075
33.000000 81.042
33.500000 81.008
34.000000 80.975
34.500000 80.941
35.000000 80.908
35.500000 80.875
36.000000 80.841
36.500000 80.808
37.000000 80.775
37.500000 80.742
38.200001 80.696
38.700001 80.663
39.500000 80.610
40.000000 80.578
40.599998 80.539
41.200001 80.500
41.799999 80.461
42.500000 80.416
43.099998 80.378
43.700001 80.340
44.400002 80.296
45.000000 80.259
45.500000 80.228
46.200001 80.185
46.799999 80.148
47.500000 80.106
48.200001 80.064
48.700001 80.034
49.400002 79.993
50.000000 79.958
50.799999 79.911
51.500000 79.872
52.200001 79.832
53.000000 79.787
53.799999 79.743
54.500000 79.705
55.200001 79.668
56.000000 79.626
57.000000 79.573
58.000000 79.522
59.000000 79.472
60.000000 79.423
60.799999 79.384
61.500000 79.351
62.200001 79.318
63.000000 79.280
64.000000 79.235
65.000000 79.190
66.000000 79.146
67.000000 79.103
68.000000 79.061
69.000000 79.019
70.000000 78.979
71.000000 78.939
72.000000 78.900
73.000000 78.861
74.000000 78.824
75.000000 78.787
76.199997 78.743
77.500000 78.697
78.800003 78.652
80.000000 78.611
81.199997 78.570
82.500000 78.528
83.800003 78.486
85.000000 78.448
86.199997 78.411
87.500000 78.371
88.500000 78.341
90.000000 78.297
91.199997 78.262
92.500000 78.225
93.800003 78.188
95.000000 78.155
96.199997 78.122
97.500000 78.087
98.800003 78.053
100.000000 78.021
101.500000 77.983
103.000000 77.945
104.400002 77.910
106.000000 77.871
107.500000 77.835
109.000000 77.799
110.599998 77.762
112.000000 77.730
113.800003 77.690
115.000000 77.664
117.199997 77.617
118.000000 77.600
120.599998 77.547
122.000000 77.519
124.099998 77.478
125.000000 77.461
126.500000 77.432
128.000000 77.405
131.500000 77.343
132.000000 77.334
134.000000 77.301
136.000000 77.268
138.000000 77.236
140.000000 77.205
143.000000 77.159
145.000000 77.130
147.500000 77.094
150.000000 77.059
152.500000 77.025
155.000000 76.991
157.500000 76.958
160.000000 76.924
162.500000 76.892
165.000000 76.859
167.500000 76.826
170.000000 76.793
172.500000 76.761
175.000000 76.728
177.500000 76.695
180.000000 76.662
182.500000 76.629
185.000000 76.596
187.500000 76.562
190.000000 76.529
192.500000 76.496
195.000000 76.464
197.500000 76.431
200.000000 76.398
203.000000 76.360
206.000000 76.322
209.000000 76.284
212.000000 76.248
214.000000 76.224
218.000000 76.176
220.000000 76.153
224.000000 76.108
227.000000 76.076
230.000000 76.044
233.000000 76.013
236.000000 75.982
240.000000 75.943
243.000000 75.915
247.000000 75.879
250.000000 75.852
254.000000 75.819
258.000000 75.786
262.000000 75.754
265.000000 75.731
269.000000 75.702
272.000000 75.681
276.000000 75.653
280.000000 75.626
285.000000 75.594
290.000000 75.563
295.000000 75.534
300.000000 75.506
304.000000 75.484
307.000000 75.468
311.000000 75.448
315.000000 75.428
320.000000 75.405
325.000000 75.382
330.000000 75.361
335.000000 75.340
340.000000 75.321
345.000000 75.302
350.000000 75.285
355.000000 75.268
360.000000 75.252
365.000000 75.237
370.000000 75.223
375.000000 75.209
382.000000 75.192
387.000000 75.180
395.000000 75.162
400.000000 75.152
406.000000 75.140
412.000000 75.130
418.000000 75.120
425.000000 75.109
431.000000 75.100
437.000000 75.092
444.000000 75.083
450.000000 75.077
455.000000 75.071
462.000000 75.064
468.000000 75.059
475.000000 75.052
482.000000 75.047
487.000000 75.043
494.000000 75.038
500.000000 75.034
508.000000 75.030
515.000000 75.026
522.000000 75.022
530.000000 75.018
538.000000 75.015
545.000000 75.012
552.000000 75.010
560.000000 75.007
570.000000 75.004
580.000000 75.002
590.000000 75.000
600.000000 75.000
608.000000 75.000
615.000000 75.000
622.000000 75.001
630.000000 75.003
640.000000 75.007
650.000000 75.012
660.000000 75.019
670.000000 75.028
680.000000 75.039
690.000000 75.052
700.000000 75.067
710.000000 75.085
720.000000 75.104
730.000000 75.125
740.000000 75.148
750.000000 75.173
762.000000 75.204
775.000000 75.240
788.000000 75.278
800.000000 75.315
812.000000 75.354
825.000000 75.402
838.000000 75.461
850.000000 75.524
862.000000 75.586
875.000000 75.647
885.000000 75.695
900.000000 75.774
912.000000 75.844
925.000000 75.919
938.000000 75.995
950.000000 76.065
962.000000 76.136
975.000000 76.207
988.000000 76.276
1000.000000 76.342
1015.000000 76.436
1030.000000 76.539
1044.000000 76.639
1060.000000 76.748
1075.000000 76.846
1090.000000 76.945
1106.000000 77.049
1120.000000 77.138
1138.000000 77.251
1150.000000 77.325
1172.000000 77.464
1180.000000 77.516
1206.000000 77.689
1220.000000 77.778
1241.000000 77.908
1250.000000 77.964
1265.000000 78.057
1280.000000 78.150
1315.000000 78.366
1320.000000 78.395
1340.000000 78.503
1360.000000 78.601
1380.000000 78.696
1400.000000 78.792
1430.000000 78.937
1450.000000 79.035
1475.000000 79.158
1500.000000 79.280
1525.000000 79.400
1550.000000 79.518
1575.000000 79.634
1600.000000 79.747
1625.000000 79.857
1650.000000 79.965
1675.000000 80.070
1700.000000 80.172
1725.000000 80.272
1750.000000 80.371
1775.000000 80.468
1800.000000 80.564
1825.000000 80.659
1850.000000 80.753
1875.000000 80.848
1900.000000 80.942
1925.000000 81.037
1950.000000 81.133
1975.000000 81.229
2000.000000 81.323
2030.000000 81.431
2060.000000 81.531
2090.000000 81.625
2120.000000 81.726
2140.000000 81.799
2180.000000 81.947
2200.000000 82.017
2240.000000 82.147
2270.000000 82.243
2300.000000 82.338
2330.000000 82.432
2360.000000 82.525
2400.000000 82.650
2430.000000 82.739
2470.000000 82.849
2500.000000 82.927
2540.000000 83.026
2580.000000 83.116
2620.000000 83.198
2650.000000 83.260
2690.000000 83.338
2720.000000 83.394
2760.000000 83.464
2800.000000 83.528
2850.000000 83.587
2900.000000 83.623
2950.000000 83.644
3000.000000 83.652
3040.000000 83.646
3070.000000 83.632
3110.000000 83.602
3150.000000 83.565
3200.000000 83.519
3250.000000 83.465
3300.000000 83.395
3350.000000 83.310
3400.000000 83.218
3450.000000 83.122
3500.000000 83.023
3550.000000 82.923
3600.000000 82.820
3650.000000 82.713
3700.000000 82.601
3750.000000 82.485
3820.000000 82.322
3870.000000 82.204
3950.000000 82.010
4000.000000 81.893
4060.000000 81.759
4120.000000 81.624
4180.000000 81.481
4250.000000 81.314
4310.000000 81.179
4370.000000 81.056
4440.000000 80.923
4500.000000 80.807
4550.000000 80.706
4620.000000 80.560
4680.000000 80.436
4750.000000 80.293
4820.000000 80.154
4870.000000 80.057
4940.000000 79.924
5000.000000 79.812
5080.000000 79.667
5150.000000 79.544
5220.000000 79.423
5300.000000 79.289
5380.000000 79.157
5450.000000 79.045
5520.000000 78.935
5600.000000 78.813
5700.000000 78.663
5800.000000 78.517
5900.000000 78.372
6000.000000 78.223
6080.000000 78.097
6150.000000 77.983
6220.000000 77.872
6300.000000 77.755
6400.000000 77.621
6500.000000 77.495
6600.000000 77.374
6700.000000 77.256
6800.000000 77.140
6900.000000 77.026
7000.000000 76.913
7100.000000 76.797
7200.000000 76.675
7300.000000 76.546
7400.000000 76.419
7500.000000 76.303
7620.000000 76.177
7750.000000 76.049
7880.000000 75.925
8000.000000 75.814
8120.000000 75.702
8250.000000 75.577
8380.000000 75.443
8500.000000 75.316
8620.000000 75.197
8750.000000 75.081
8850.000000 74.996
9000.000000 74.868
9120.000000 74.759
9250.000000 74.636
9380.000000 74.518
9500.000000 74.416
9620.000000 74.313
9750.000000 74.198
9880.000000 74.084
10000.000000 73.980
10150.000000 73.852
10300.000000 73.726
10440.000000 73.612
10600.000000 73.480
10750.000000 73.354
10900.000000 73.230
11060.000000 73.104
11200.000000 73.000
11380.000000 72.867
11500.000000 72.777
11720.000000 72.609
11800.000000 72.548
12060.000000 72.354
12200.000000 72.252
12410.000000 72.102
12500.000000 72.039
12650.000000 71.936
12800.000000 71.834
13150.000000 71.604
13200.000000 71.571
13400.000000 71.444
13600.000000 71.320
13800.000000 71.197
14000.000000 71.076
14300.000000 70.891
14500.000000 70.764
14750.000000 70.609
15000.000000 70.464
15250.000000 70.323
15500.000000 70.178
15750.000000 70.031
16000.000000 69.889
16250.000000 69.746
16500.000000 69.606
16750.000000 69.470
17000.000000 69.334
17250.000000 69.200
17500.000000 69.070
17750.000000 68.940
18000.000000 68.810
18250.000000 68.683
18500.000000 68.552
18750.000000 68.419
19000.000000 68.292
19250.000000 68.178
19500.000000 68.079
19750.000000 68.002
20000.000000 67.957
